z	h(m)	phi3.0	phi2.9	phi2.8	phi2.7	phi2.6	phi2.5	phi2.4	phi2.3	phi2.2	phi2.1
45	4449.5	0.0000	0.0000	0.0000	0.0000	0.0000	0.0000	0.0000	0.0000	0.0000	0.0000
44	4400.0	-725.3564	-631.4594	-549.7173	-536.3025	-500.3880	-466.8785	-435.6130	-406.4413	-379.2232	-353.8277
43	4300.0	-2215.0835	-1928.3422	-1678.7194	-1640.6625	-1530.7922	-1428.2796	-1332.6320	-1243.3896	-1160.1236	-1082.4336
42	4200.0	-3736.4593	-3252.7768	-2831.7066	-2771.9779	-2586.3468	-2413.1469	-2251.5457	-2100.7664	-1960.0843	-1828.8234
41	4100.0	-5293.0981	-4607.9096	-4011.4183	-3932.3079	-3668.9730	-3423.2728	-3194.0265	-2980.1321	-2780.5616	-2594.3557
40	4000.0	-6886.4807	-5995.0297	-5252.7385	-5122.5983	-4779.5532	-4459.4808	-4160.8427	-3882.2035	-3622.2240	-3379.6545
39	3900.0	-8513.7322	-7411.6344	-6558.3916	-6340.8156	-5916.1902	-5520.0006	-5150.3427	-4805.4396	-4483.6337	-4183.3782
38	3800.0	-10171.9661	-8855.2109	-7891.7721	-7584.9036	-7076.9653	-6603.0421	-6160.8561	-5748.2820	-5363.3368	-5004.1702
37	3700.0	-11858.2852	-10323.2369	-9250.6526	-8852.7840	-8259.9395	-7706.7961	-7190.6950	-6709.1557	-6259.8636	-5840.6593
36	3600.0	-13569.7831	-11813.1823	-10632.7833	-10142.3575	-9463.1542	-8829.4351	-8238.1542	-7686.4697	-7171.7298	-6691.4605
35	3500.0	-15303.5452	-13322.5099	-12035.8926	-11451.5048	-10684.6318	-9969.1140	-9301.5122	-8678.6178	-8097.4367	-7555.1756
34	3400.0	-17056.6505	-14848.6767	-13457.6884	-12778.0872	-11922.3769	-11123.9710	-10379.0319	-9683.9792	-9035.4721	-8430.3936
33	3300.0	-18826.1724	-16389.1350	-14895.8590	-14119.9478	-13174.3772	-12292.1285	-11468.9615	-10700.9194	-9984.3109	-9315.6914
32	3200.0	-20609.1801	-17941.3334	-16348.0742	-15474.9125	-14438.6039	-13471.6938	-12569.5348	-11727.7906	-10942.4156	-10209.6348
31	3100.0	-22402.7403	-19502.7181	-17811.9862	-16840.7907	-15713.0133	-14660.7598	-13678.9726	-12762.9327	-11908.2373	-11110.7783
30	3000.0	-24230.8282	-21094.1611	-19307.1133	-18235.7936	-17014.5971	-15875.1804	-14812.0671	-13820.1472	-12894.6533	-12031.1370
29	2900.0	-26134.3779	-22751.2974	-20867.4857	-19691.6725	-18372.9801	-17142.5966	-15994.6082	-14923.4971	-13924.1152	-12991.6588
28	2800.0	-28125.6887	-24484.8341	-22504.0200	-21218.6130	-19797.6660	-18471.8755	-17234.8693	-16080.7016	-15003.8252	-13999.0639
27	2700.0	-30198.4002	-26289.2343	-24211.8512	-22812.0759	-21284.4194	-19859.0655	-18529.1633	-17288.3207	-16130.5735	-15050.3573
26	2600.0	-32346.1109	-28158.9251	-25986.0403	-24467.4528	-22828.9407	-21300.1548	-19873.7472	-18542.8618	-17301.1018	-16142.4988
25	2500.0	-34562.3922	-30088.3100	-27821.5853	-26180.0768	-24426.8754	-22791.0806	-21264.8302	-19840.7881	-18512.1099	-17272.4092
24	2400.0	-36840.8018	-32071.7807	-29713.4322	-27945.2325	-26073.8239	-24327.7379	-22698.5821	-21178.5259	-19760.2634	-18436.9777
23	2300.0	-39174.8976	-34103.7292	-31656.4866	-29758.1664	-27765.3510	-25905.9885	-24171.1419	-22552.4729	-21042.2012	-19633.0680
22	2200.0	-41558.2515	-36178.5592	-33645.6246	-31614.0977	-29496.9961	-27521.6705	-25678.6266	-23959.0058	-22354.5428	-20857.5260
21	2100.0	-43984.4625	-38290.6986	-35675.7041	-33508.2289	-31264.2830	-29170.6075	-27217.1392	-25394.4888	-23693.8959	-22107.1865
20	2000.0	-46442.6421	-40430.6683	-37737.7478	-35432.1836	-33059.3963	-30845.5074	-28779.8761	-26852.5739	-25054.3373	-23376.5233
19	1900.0	-48889.5663	-42560.8395	-39796.6844	-37353.2394	-34851.8047	-32517.8836	-30340.2582	-28308.4619	-26412.7289	-24643.9475
18	1800.0	-51284.0189	-44645.3316	-41818.8318	-39239.9696	-36612.1862	-34160.3777	-31872.7594	-29738.3360	-27746.8486	-25888.7252
17	1700.0	-53614.8814	-46674.4652	-43794.4644	-41083.3000	-38332.0743	-35765.0900	-33370.0089	-31135.3192	-29050.2800	-27104.8697
16	1600.0	-55871.4940	-48638.9606	-45714.1426	-42874.4231	-40003.2513	-37324.3532	-34824.8529	-32492.7367	-30316.7953	-28286.5703
15	1500.0	-58036.2996	-50523.5333	-47562.4672	-44598.9709	-41612.3113	-38825.6593	-36225.6210	-33799.6996	-31536.2348	-29424.3475
14	1400.0	-60080.4521	-52352.8530	-49314.6882	-46233.8510	-43137.7083	-40248.9050	-37553.5563	-35038.7070	-32692.2696	-30502.9661
13	1300.0	-61988.0620	-54112.8282	-50956.8031	-47765.9984	-44567.2524	-41582.7168	-38798.0467	-36199.8575	-33775.6614	-31513.8064
12	1200.0	-63760.3359	-55754.8775	-52488.8893	-49195.4854	-45901.0109	-42827.1575	-39959.1509	-37283.2061	-34786.4613	-32456.9161
11	1100.0	-65398.5111	-57279.1199	-53911.0577	-50522.4154	-47139.0804	-43982.3172	-41036.9530	-38288.8310	-35724.7425	-33332.3634
10	1000.0	-66773.6800	-58563.5081	-55109.4343	-51640.5403	-48182.3278	-44955.7014	-41945.1526	-39136.2112	-36515.3762	-34070.0507
9	900.0	-67729.0148	-59458.7073	-55944.6847	-52419.8564	-48909.4555	-45634.1355	-42578.1540	-39726.8224	-37066.4359	-34584.2076
8	800.0	-68377.2109	-60067.9427	-56513.1214	-52950.2267	-49404.3084	-46095.8496	-43008.9485	-40128.7679	-37441.4643	-34934.1215
7	700.0	-68942.1840	-60600.4392	-57009.9583	-53413.7918	-49836.8300	-46499.4066	-43385.4804	-40480.0846	-37769.2544	-35239.9604
6	600.0	-69507.9067	-61135.0460	-57508.7640	-53879.1940	-50271.0656	-46904.5627	-43763.5045	-40832.7935	-38098.3435	-35547.0114
5	500.0	-70074.3217	-61671.6796	-58009.4609	-54346.3607	-50706.9475	-47311.2549	-44142.9617	-41186.8396	-38428.6802	-35855.2264
4	400.0	-70641.3992	-62210.3335	-58512.0427	-54815.2862	-51144.4704	-47719.4783	-44523.8475	-41542.2187	-38760.2606	-36164.6019
3	300.0	-71209.1380	-62751.0109	-59016.5126	-55285.9732	-51583.6370	-48129.2351	-44906.1642	-41898.9328	-39093.0866	-36475.1395
2	200.0	-71731.7355	-63249.8107	-59481.9092	-55720.2036	-51988.7883	-48507.2547	-45258.8689	-42228.0179	-39400.1338	-36761.6247
1	100.0	-72089.8583	-63592.3133	-59801.4754	-56018.3695	-52266.9868	-48766.8231	-45501.0548	-42453.9853	-39610.9689	-36958.3408
0	0.0	-72209.4555	-63706.9388	-59908.4248	-56118.1568	-52360.0917	-48853.6930	-45582.1073	-42529.6100	-39681.5292	-37024.1759
