z	h(m)	phi0.0	phi-0.1	phi-0.2	phi-0.3	phi-0.4	phi-0.5	phi-0.6	phi-0.7	phi-0.8	phi-0.9
45	4449.5	0.0000	0.0000	0.0000	0.0000	0.0000	0.0000	0.0000	0.0000	0.0000	0.0000
44	4400.0	280.9831	262.1665	244.6100	228.2292	212.9454	192.4273	185.8725	179.5410	173.4251	167.5177
43	4300.0	839.4003	783.1882	730.7404	681.8049	636.1465	575.3556	555.7569	536.8258	518.5395	500.8762
42	4200.0	1385.2463	1292.4805	1205.9270	1125.1696	1049.8204	950.2429	917.8742	886.6080	856.4069	827.2345
41	4100.0	1919.3502	1790.8171	1670.8914	1558.9968	1454.5955	1317.5081	1272.6289	1229.2785	1187.4048	1146.9574
40	4000.0	2442.3260	2278.7708	2126.1683	1983.7852	1850.9370	1677.5103	1620.3681	1565.1724	1511.8569	1460.3575
39	3900.0	2954.0639	2756.2390	2571.6620	2399.4455	2238.7618	2030.1569	1961.0023	1894.2033	1829.6798	1767.3542
38	3800.0	3454.4609	3223.1260	3007.2829	2805.8942	2617.9918	2375.3598	2294.4464	2216.2891	2140.7941	2067.8708
37	3700.0	3943.4213	3679.3422	3432.9476	3203.0534	2988.5545	2713.0357	2620.6198	2531.3518	2445.1247	2361.8348
36	3600.0	4420.8563	4124.8048	3848.5790	3590.8511	3350.3826	3043.1059	2939.4465	2839.3182	2742.6006	2649.1775
35	3500.0	4886.6844	4559.4378	4254.1059	3969.2211	3703.4143	3365.4964	3250.8553	3140.1192	3033.1552	2929.8348
34	3400.0	5340.8314	4983.1719	4649.4638	4338.1031	4047.5933	3680.1384	3554.7794	3433.6905	3316.7264	3203.7466
33	3300.0	5783.2303	5395.9447	5034.5944	4697.4427	4382.8690	3986.9678	3851.1570	3719.9725	3593.2566	3470.8571
32	3200.0	6213.8219	5797.7008	5409.4462	5047.1917	4709.1964	4285.9257	4139.9313	3998.9101	3862.6925	3731.1150
31	3100.0	6632.5543	6188.3919	5773.9739	5387.3081	5026.5362	4576.9583	4421.0503	4270.4531	4124.9858	3984.4736
30	3000.0	7039.0135	6567.6318	6127.8172	5717.4556	5326.8312	4859.7477	4694.2069	4534.3050	4379.8499	4230.6561
29	2900.0	7432.5690	6934.8321	6470.4271	6037.1220	5610.6199	5133.8695	4958.9910	4790.0696	4626.9022	4469.2930
28	2800.0	7812.8058	7289.6056	6801.4425	6345.9702	5885.1590	5399.0568	5215.1451	5037.4981	4865.9024	4700.1519
27	2700.0	8179.4025	7631.6524	7120.5834	6643.7393	6150.1912	5655.0610	5462.4289	5276.3585	5096.6263	4923.0165
26	2600.0	8532.0716	7960.7043	7427.5997	6930.1956	6405.4828	5901.6564	5700.6243	5506.4402	5318.8706	5137.6903
25	2500.0	8870.5602	8276.5253	7722.2711	7205.1337	6650.8243	6138.6407	5929.5361	5727.5543	5532.4528	5343.9971
24	2400.0	9194.6499	8578.9117	8004.4076	7468.3764	6886.0309	6365.8353	6148.9916	5939.5343	5737.2120	5541.7815
23	2300.0	9504.1577	8867.6927	8273.8498	7719.7748	7110.9424	6583.0855	6358.8415	6142.2360	5933.0089	5730.9088
22	2200.0	9798.9356	9142.7302	8530.4689	7959.2089	7325.4240	6790.2611	6558.9599	6335.5377	6119.7260	5911.2657
21	2100.0	10078.8710	9403.9192	8774.1668	8186.5871	7529.3663	6987.2564	6749.2448	6519.3407	6297.2680	6082.7600
20	2000.0	10343.3415	9650.6788	9004.4017	8401.4039	7722.2859	7173.6044	6929.2451	6693.2096	6465.2143	6244.9853
19	1900.0	10588.3909	9879.3181	9217.7297	8600.4459	7901.3142	7346.5344	7096.2844	6854.5589	6621.0675	6395.5296
18	1800.0	10810.9447	10086.9681	9411.4740	8781.2158	8064.2044	7503.8760	7248.2664	7001.3638	6762.8717	6532.5034
17	1700.0	11011.6860	10274.2664	9586.2295	8944.2684	8211.3978	7646.0554	7385.6027	7134.0219	6891.0110	6656.2778
16	1600.0	11191.3757	10441.9228	9742.6584	9090.2217	8343.3953	7773.5565	7508.7607	7252.9847	7005.9214	6767.2740
15	1500.0	11352.9925	10592.7166	9883.3541	9221.4954	8462.3339	7888.4437	7619.7344	7360.1782	7109.4635	6867.2891
14	1400.0	11503.6362	10733.2721	10014.4969	9343.8560	8573.4163	7995.7422	7723.3779	7460.2913	7206.1664	6960.6979
13	1300.0	11647.6612	10867.6522	10139.8781	9460.8408	8679.8433	8098.5439	7822.6777	7556.2086	7298.8164	7050.1919
12	1200.0	11784.7213	10995.5338	10259.1958	9572.1681	8781.3381	8196.5814	7917.3757	7647.6808	7387.1728	7135.5385
11	1100.0	11914.4680	11116.5917	10372.1468	9677.5552	8877.6207	8289.5843	8007.2106	7734.4556	7470.9917	7216.5023
10	1000.0	12027.6590	11222.2027	10470.6854	9769.4949	8961.7772	8370.8741	8085.7314	7810.3017	7544.2542	7287.2692
9	900.0	12111.1956	11300.1451	10543.4082	9837.3477	9023.9878	8430.9655	8143.7759	7866.3690	7598.4116	7339.5818
8	800.0	12170.9802	11355.9260	10595.4536	9884.6981	9068.5774	8474.0363	8185.3795	7906.5554	7637.2291	7377.0771
7	700.0	12223.9615	11405.3594	10641.5766	9925.6642	9108.1480	8512.2590	8222.3002	7942.2185	7671.6774	7410.3519
6	600.0	12277.1645	11454.9995	10687.8924	9966.8558	9147.9364	8550.6921	8259.4241	7978.0778	7706.3152	7443.8098
5	500.0	12330.6045	11504.8608	10734.4147	10008.2839	9187.9534	8589.3459	8296.7612	8014.1431	7741.1519	7477.4599
4	400.0	12384.2933	11554.9542	10781.1535	10049.9588	9228.2087	8628.2299	8334.3207	8050.4232	7776.1962	7511.3104
3	300.0	12438.2317	11605.2805	10828.1096	10091.8815	9268.7034	8667.3452	8372.1036	8086.9190	7811.4489	7545.3623
2	200.0	12488.0267	11651.7409	10871.4587	10130.6272	9306.1292	8703.4962	8407.0232	8120.6491	7844.0300	7576.8335
1	100.0	12522.2288	11683.6526	10901.2334	10157.2667	9331.8613	8728.3517	8431.0320	8143.8401	7866.4310	7598.4715
0	0.0	12533.6753	11694.3325	10911.1981	10166.1917	9340.4822	8736.6790	8439.0757	8151.6098	7873.9360	7605.7209
