z	h(m)	phi-3.0	phi-3.1	phi-3.2	phi-3.3	phi-3.4	phi-3.5	phi-3.6	phi-3.7	phi-3.8	phi-3.9
45	4449.5	0.0000	0.0000	0.0000	0.0000	0.0000	0.0000	0.0000	0.0000	0.0000	0.0000
44	4400.0	-23.7644	-22.9549	-22.1730	-21.4177	-20.6882	-19.9834	-19.3027	-18.6452	-18.0101	-17.3966
43	4300.0	-72.7650	-70.2864	-67.8921	-65.5795	-63.3456	-61.1878	-59.1035	-57.0903	-55.1456	-53.2671
42	4200.0	-123.0393	-118.8481	-114.7997	-110.8892	-107.1119	-103.4633	-99.9389	-96.5347	-93.2463	-90.0700
41	4100.0	-174.6651	-168.7154	-162.9683	-157.4170	-152.0548	-146.8753	-141.8721	-137.0395	-132.3714	-127.8623
40	4000.0	-227.6812	-219.9256	-212.4341	-205.1978	-198.2080	-191.4563	-184.9346	-178.6351	-172.5501	-166.6724
39	3900.0	-281.9998	-272.3939	-263.1151	-254.1525	-245.4951	-237.1326	-229.0550	-221.2526	-213.7159	-206.4359
38	3800.0	-337.5317	-326.0341	-314.9282	-304.2006	-293.8384	-283.8292	-274.1609	-264.8220	-255.8012	-247.0877
37	3700.0	-394.1864	-380.7590	-367.7889	-355.2607	-343.1592	-331.4699	-320.1789	-309.2724	-298.7374	-288.5613
36	3600.0	-451.8723	-436.4799	-421.6118	-407.2501	-393.3777	-379.9778	-367.0344	-354.5318	-342.4552	-330.7899
35	3500.0	-510.4965	-493.1071	-476.3101	-460.0852	-444.4130	-429.2747	-414.6520	-400.5274	-386.8840	-373.7053
34	3400.0	-569.9648	-550.5497	-531.7960	-513.6811	-496.1832	-479.2814	-462.9553	-447.1853	-431.9526	-417.2387
33	3300.0	-630.1822	-608.7159	-587.9808	-567.9520	-548.6055	-529.9180	-511.8670	-494.4309	-477.5888	-461.3204
32	3200.0	-691.0523	-667.5125	-644.7746	-622.8112	-601.5960	-581.1034	-561.3089	-542.1886	-523.7197	-505.8799
31	3100.0	-752.4778	-726.8456	-702.0866	-678.1710	-655.0700	-632.7559	-611.2019	-590.3821	-570.2715	-550.8460
30	3000.0	-815.2768	-787.5055	-760.6802	-734.7686	-709.7397	-685.5633	-662.2105	-639.6532	-617.8643	-596.8176
29	2900.0	-880.8905	-850.8841	-821.8999	-793.9029	-766.8597	-740.7376	-715.5054	-691.1327	-667.5901	-644.8496
28	2800.0	-949.7957	-917.4422	-886.1907	-856.0038	-826.8452	-798.6798	-771.4738	-745.1946	-719.8105	-695.2912
27	2700.0	-1021.7956	-986.9895	-953.3690	-920.8938	-889.5248	-859.2243	-829.9559	-801.6846	-774.3763	-747.9982
26	2600.0	-1096.6895	-1059.3322	-1023.2474	-988.3919	-954.7236	-922.2022	-890.7886	-860.4451	-831.1352	-802.8237
25	2500.0	-1174.2729	-1134.2729	-1095.6354	-1058.3140	-1022.2639	-987.4419	-953.8060	-921.3159	-889.9325	-859.6181
24	2400.0	-1254.3387	-1211.6114	-1170.3394	-1130.4734	-1091.9653	-1054.7689	-1018.8396	-984.1342	-950.6110	-918.2297
23	2300.0	-1336.6771	-1291.1450	-1247.1638	-1204.6808	-1163.6450	-1124.0070	-1085.7192	-1048.7356	-1013.0118	-978.5049
22	2200.0	-1421.0761	-1372.6690	-1325.9108	-1280.7455	-1237.1186	-1194.9778	-1154.2724	-1114.9537	-1076.9743	-1040.2886
21	2100.0	-1507.3221	-1455.9772	-1406.3813	-1358.4748	-1312.2001	-1267.5018	-1224.3260	-1182.6210	-1142.3366	-1103.4244
20	2000.0	-1595.0372	-1540.7043	-1488.2223	-1437.5280	-1388.5605	-1341.2610	-1295.5728	-1251.4408	-1208.8121	-1167.6356
19	1900.0	-1682.7550	-1625.4342	-1570.0660	-1516.5837	-1464.9233	-1415.0227	-1366.8218	-1320.2628	-1275.2898	-1231.8488
18	1800.0	-1769.0628	-1708.8020	-1650.5939	-1594.3687	-1540.0586	-1487.5986	-1436.9255	-1387.9785	-1340.6989	-1295.0298
17	1700.0	-1853.5391	-1790.4007	-1729.4131	-1670.5029	-1613.5995	-1558.6343	-1505.5415	-1454.2573	-1404.7199	-1356.8700
16	1600.0	-1935.7724	-1869.8329	-1806.1395	-1744.6158	-1685.1877	-1627.7841	-1572.3358	-1518.7762	-1467.0411	-1417.0683
15	1500.0	-2015.0940	-1946.4525	-1880.1492	-1816.1044	-1754.2412	-1694.4854	-1636.7650	-1581.0107	-1527.1557	-1475.1352
14	1400.0	-2090.4401	-2019.2320	-1950.4495	-1884.0101	-1819.8338	-1757.8435	-1697.9649	-1640.1260	-1584.2573	-1530.2917
13	1300.0	-2161.2011	-2087.5826	-2016.4719	-1947.7835	-1881.4348	-1817.3462	-1755.4408	-1695.6440	-1637.8841	-1582.0918
12	1200.0	-2227.3607	-2151.4886	-2078.2010	-2007.4099	-1939.0301	-1872.9796	-1809.1791	-1747.5518	-1688.0238	-1630.5235
11	1100.0	-2288.9039	-2210.9354	-2135.6228	-2062.8757	-1992.6066	-1924.7311	-1859.1677	-1795.8376	-1734.6648	-1675.5757
10	1000.0	-2340.8611	-2261.1228	-2184.1006	-2109.7021	-2037.8379	-1968.4217	-1901.3700	-1836.6024	-1774.0410	-1713.6106
9	900.0	-2377.1339	-2296.1600	-2217.9443	-2142.3930	-2069.4152	-1998.9234	-1930.8327	-1865.0614	-1801.5306	-1740.1639
8	800.0	-2401.8570	-2320.0410	-2241.0119	-2164.6748	-2090.9380	-2019.7130	-1950.9141	-1884.4588	-1820.2673	-1758.2623
7	700.0	-2423.4962	-2340.9431	-2261.2019	-2184.1771	-2109.7760	-2037.9093	-1968.4906	-1901.4366	-1836.6667	-1774.1031
6	600.0	-2445.2497	-2361.9556	-2281.4987	-2203.7825	-2128.7135	-2056.2017	-1986.1600	-1918.5041	-1853.1528	-1790.0276
5	500.0	-2467.1137	-2383.0748	-2301.8985	-2223.4874	-2147.7472	-2074.5871	-2003.9190	-1935.6582	-1869.7226	-1806.0329
4	400.0	-2489.0884	-2404.3009	-2322.4016	-2243.2921	-2166.8773	-2093.0655	-2021.7680	-1952.8992	-1886.3763	-1822.1194
3	300.0	-2511.1742	-2425.6344	-2343.0084	-2263.1969	-2186.1041	-2111.6374	-2039.7073	-1970.2273	-1903.1142	-1838.2871
2	200.0	-2531.5721	-2445.3374	-2362.0403	-2281.5805	-2203.8615	-2128.7899	-2056.2755	-1986.2312	-1918.5729	-1853.2192
1	100.0	-2545.5925	-2458.8802	-2375.1217	-2294.2164	-2216.0669	-2140.5796	-2067.6636	-1997.2314	-1929.1983	-1863.4828
0	0.0	-2550.2897	-2463.4175	-2379.5044	-2298.4498	-2220.1561	-2144.5294	-2071.4789	-2000.9167	-1932.7582	-1866.9213
