z	h(m)	phi-4.0	phi-3.0	phi-2.0	phi-1.0	phi0.0	phi1.0	phi2.0	phi3.0	phi4.0	phi5.0
45	4449.5	0.0000	0.0000	0.0000	0.0000	0.0000	0.0000	0.0000	0.0000	0.0000	0.0000
44	4400.0	57.2090	80.9057	114.4179	161.8114	280.9831	561.9662	1123.9324	2469.4643	9877.8574	39511.4295
43	4300.0	171.0543	241.9072	342.1085	483.8145	839.4003	1678.8006	3357.6012	7364.2746	29457.0985	117828.3942
42	4200.0	282.5089	399.5279	565.0178	799.0559	1385.2463	2770.4926	5540.9852	12134.1160	48536.4641	194145.8566
41	4100.0	391.6975	553.9439	783.3950	1107.8878	1919.3502	3838.7005	7677.4010	16790.1175	67160.4699	268641.8795
40	4000.0	498.7268	705.3062	997.4536	1410.6124	2442.3260	4884.6520	9769.3041	21339.2615	85357.0460	341428.1840
39	3900.0	603.5692	853.5758	1207.1385	1707.1516	2954.0639	5908.1277	11816.2555	25781.0557	103124.2227	412496.8910
38	3800.0	706.1987	998.7158	1412.3974	1997.4316	3454.4609	6908.9218	13817.8436	30115.0708	120460.2831	481841.1322
37	3700.0	806.5903	1140.6910	1613.1807	2281.3820	3943.4213	7886.8426	15773.6853	34340.9409	137363.7637	549455.0548
36	3600.0	904.7208	1279.4684	1809.4416	2558.9368	4420.8563	8841.7127	17683.4253	38458.3641	153833.4564	615333.8258
35	3500.0	1000.5681	1415.0169	2001.1362	2830.0339	4886.6844	9773.3689	19546.7377	42467.1023	169868.4091	679473.6362
34	3400.0	1094.1117	1547.3076	2188.2234	3094.6152	5340.8314	10681.6628	21363.3256	46366.9816	185467.9263	741871.7051
33	3300.0	1185.3326	1676.3135	2370.6652	3352.6269	5783.2303	11566.4607	23132.9214	50157.8926	200631.5705	802526.2821
32	3200.0	1274.2133	1802.0098	2548.4267	3604.0195	6213.8219	12427.6438	24855.2876	53839.7907	215359.1628	861436.6511
31	3100.0	1360.7378	1924.3739	2721.4757	3848.7478	6632.5543	13265.1085	26530.2171	57412.6958	229650.7831	918603.1324
30	3000.0	1444.8116	2043.2722	2889.6233	4086.5444	7039.0135	14078.0271	28156.0541	60873.8422	243495.3688	973981.4754
29	2900.0	1526.3085	2158.5262	3052.6171	4317.0524	7432.5690	14865.1380	29730.2759	64217.5313	256870.1254	1027480.5016
28	2800.0	1605.1492	2270.0237	3210.2984	4540.0475	7812.8058	15625.6116	31251.2232	67439.7284	269758.9137	1079035.6547
27	2700.0	1681.2597	2377.6603	3362.5194	4755.3205	8179.4025	16358.8050	32717.6100	70538.3351	282153.3403	1128613.3611
26	2600.0	1754.5730	2481.3409	3509.1459	4962.6817	8532.0716	17064.1432	34128.2865	73511.5568	294046.2274	1176184.9096
25	2500.0	1825.0288	2580.9805	3650.0576	5161.9610	8870.5602	17741.1203	35482.2406	76357.9035	305431.6142	1221726.4567
24	2400.0	1892.5742	2676.5040	3785.1483	5353.0081	9194.6499	18389.2998	36778.5996	79076.1890	316304.7559	1265219.0236
23	2300.0	1957.1630	2767.8465	3914.3261	5535.6930	9504.1577	19008.3153	38016.6306	81665.5301	326662.1203	1306648.4813
22	2200.0	2018.7567	2854.9531	4037.5134	5709.9062	9798.9356	19597.8711	39195.7422	84125.3455	336501.3821	1346005.5284
21	2100.0	2077.3237	2937.7794	4154.6475	5875.5588	10078.8710	20157.7420	40315.4841	86455.3536	345821.4145	1383285.6580
20	2000.0	2132.7253	3016.1291	4265.4507	6032.2582	10343.3415	20686.6829	41373.3658	88651.0732	354604.2930	1418417.1719
19	1900.0	2184.1377	3088.8372	4368.2755	6177.6744	10588.3909	21176.7819	42353.5637	90679.2944	362717.1774	1450868.7098
18	1800.0	2230.9157	3154.9912	4461.8313	6309.9824	10810.9447	21621.8895	43243.7790	92514.6172	370058.4688	1480233.8751
17	1700.0	2273.1859	3214.7703	4546.3717	6429.5406	11011.6860	22023.3721	44046.7441	94164.0369	376656.1476	1506624.5902
16	1600.0	2311.0922	3268.3779	4622.1844	6536.7558	11191.3757	22382.7514	44765.5028	95635.1148	382540.4593	1530161.8374
15	1500.0	2345.2483	3316.6820	4690.4967	6633.3640	11352.9925	22705.9851	45411.9702	96953.4057	387813.6228	1551254.4912
14	1400.0	2377.1484	3361.7955	4754.2968	6723.5909	11503.6362	23007.2723	46014.5446	98177.3429	392709.3714	1570837.4857
13	1300.0	2407.7115	3405.0183	4815.4230	6810.0365	11647.6612	23295.3225	46590.6450	99342.5634	397370.2538	1589481.0150
12	1200.0	2436.8582	3446.2379	4873.7164	6892.4759	11784.7213	23569.4427	47138.8853	100446.7504	401787.0018	1607148.0071
11	1100.0	2464.5082	3485.3409	4929.0163	6970.6817	11914.4680	23828.9360	47657.8720	101487.6037	405950.4147	1623801.6587
10	1000.0	2488.6758	3519.5190	4977.3515	7039.0380	12027.6590	24055.3181	48110.6362	102392.2083	409568.8333	1638275.3330
9	900.0	2506.5411	3544.7844	5013.0821	7089.5687	12111.1956	24222.3912	48444.7825	103057.6341	412230.5363	1648922.1451
8	800.0	2519.3461	3562.8934	5038.6921	7125.7867	12170.9802	24341.9603	48683.9207	103532.4192	414129.6770	1656518.7079
7	700.0	2530.7097	3578.9640	5061.4195	7157.9281	12223.9615	24447.9230	48895.8461	103952.0053	415808.0211	1663232.0845
6	600.0	2542.1360	3595.1232	5084.2719	7190.2463	12277.1645	24554.3289	49108.6578	104372.2398	417488.9592	1669955.8367
5	500.0	2553.6278	3611.3751	5107.2556	7222.7501	12330.6045	24661.2089	49322.4179	104793.2673	419173.0692	1676692.2767
4	400.0	2565.1881	3627.7238	5130.3762	7255.4476	12384.2933	24768.5866	49537.1732	105215.1615	420860.6462	1683442.5846
3	300.0	2576.8172	3644.1698	5153.6343	7288.3395	12438.2317	24876.4633	49752.9267	105637.9227	422551.6907	1690206.7628
2	200.0	2587.5649	3659.3694	5175.1298	7318.7388	12488.0267	24976.0535	49952.1070	106027.3393	424109.3570	1696437.4280
1	100.0	2594.9545	3669.8198	5189.9090	7339.6397	12522.2288	25044.4577	50088.9154	106294.2758	425177.1031	1700708.4123
0	0.0	2597.4302	3673.3210	5194.8604	7346.6421	12533.6753	25067.3506	50134.7011	106383.4208	425533.6830	1702134.7321
